"Time (s)","Magnetic field x (µT)","Magnetic field y (µT)","Magnetic field z (µT)"
3.197115500E-2,1.512799978E0,-1.439599991E1,-4.684799957E1
4.197115500E-2,1.561599970E0,-1.449359989E1,-4.705540085E1
5.197115500E-2,1.549399972E0,-1.451799965E1,-4.715299988E1
6.197115500E-2,1.488399982E0,-1.450579929E1,-4.725059891E1
7.197115500E-2,1.476199985E0,-1.453020000E1,-4.727499771E1
8.197115500E-2,1.451799989E0,-1.459119987E1,-4.720179749E1
9.197115500E-2,1.427399993E0,-1.465219975E1,-4.716519928E1
1.001947490E-1,1.439599991E0,-1.470099926E1,-4.714080048E1
1.019711550E-1,1.427399993E0,-1.473759937E1,-4.722620010E1
1.119711550E-1,1.402999997E0,-1.477419949E1,-4.721400070E1
1.219711550E-1,1.415199995E0,-1.483519936E1,-4.718959808E1
1.319711550E-1,1.451799989E0,-1.484739971E1,-4.717739868E1
1.419711550E-1,1.451799989E0,-1.484739971E1,-4.714080048E1
1.519711550E-1,1.476199985E0,-1.482299995E1,-4.720179749E1
1.619711550E-1,1.488399982E0,-1.481079960E1,-4.723839951E1
1.719711550E-1,1.488399982E0,-1.472539997E1,-4.725059891E1
1.819711550E-1,1.500599980E0,-1.471319962E1,-4.726279831E1
1.919711550E-1,1.549399972E0,-1.466440010E1,-4.726279831E1
2.019711550E-1,1.634799957E0,-1.456680012E1,-4.733599854E1
2.119711550E-1,1.695799947E0,-1.450579929E1,-4.743359756E1
2.219711550E-1,1.854399920E0,-1.446920013E1,-4.768980026E1
2.319711550E-1,1.988600016E0,-1.439599991E1,-4.799480057E1
2.419711550E-1,2.220399857E0,-1.439599991E1,-4.833639908E1
2.519711550E-1,2.476599932E0,-1.446920013E1,-4.875119781E1
2.619711550E-1,2.720599890E0,-1.451799965E1,-4.917819977E1
2.719711550E-1,2.952399969E0,-1.461559963E1,-4.972719955E1
2.819711550E-1,3.086599827E0,-1.477419949E1,-5.026399994E1
2.919711550E-1,3.257400036E0,-1.504259968E1,-5.072760010E1
3.019711550E-1,3.355000019E0,-1.534759998E1,-5.109359741E1
3.119711550E-1,3.415999889E0,-1.592099953E1,-5.131319809E1
3.219711550E-1,3.330600023E0,-1.649440002E1,-5.148399734E1
3.319711550E-1,3.208600044E0,-1.718980026E1,-5.149620056E1
3.419711550E-1,2.976799965E0,-1.798279953E1,-5.127659988E1
3.519711550E-1,2.586400032E0,-1.867819977E1,-5.067879868E1
3.619711550E-1,2.195999861E0,-1.923939896E1,-5.004439926E1
3.719711550E-1,1.854399920E0,-1.965419960E1,-4.951979828E1
3.819711550E-1,1.573799968E0,-2.000799942E1,-4.895859909E1
3.919711550E-1,1.317600012E0,-2.011779976E1,-4.856819916E1
4.019711550E-1,1.146799922E0,-2.009339905E1,-4.822660065E1
4.119711550E-1,9.393999577E-1,-2.002019882E1,-4.790940094E1
4.219711550E-1,8.417999744E-1,-1.978839874E1,-4.768980026E1
4.319711550E-1,7.929999828E-1,-1.959319878E1,-4.777519989E1
4.419711550E-1,7.807999849E-1,-1.947119904E1,-4.783620071E1
4.519711550E-1,6.953999996E-1,-1.942239952E1,-4.781179810E1
4.619711550E-1,5.001999736E-1,-1.932480049E1,-4.772639847E1
4.719711550E-1,3.050000072E-1,-1.915399933E1,-4.750679779E1
4.819711550E-1,4.879999906E-2,-1.900759888E1,-4.734819794E1
4.919711550E-1,-2.073999941E-1,-1.877579880E1,-4.728720093E1
5.019711550E-1,-5.367999673E-1,-1.849519920E1,-4.732379913E1
5.119711550E-1,-7.441999912E-1,-1.817799950E1,-4.742139816E1
5.219711550E-1,-1.000399947E0,-1.786079979E1,-4.764099884E1
5.319711550E-1,-1.171200037E0,-1.747039986E1,-4.786059952E1
5.419711550E-1,-1.342000008E0,-1.715320015E1,-4.828759766E1
5.519711550E-1,-1.500599980E0,-1.687260056E1,-4.887319946E1
5.619711550E-1,-1.573799968E0,-1.673839951E1,-4.950759888E1
5.719711550E-1,-1.549399972E0,-1.668959999E1,-5.011759949E1
5.819711550E-1,-1.378600001E0,-1.687260056E1,-5.050799942E1
5.919711550E-1,-1.244400024E0,-1.714099884E1,-5.106919861E1
6.019711550E-1,-1.122399926E0,-1.786079979E1,-5.133760071E1
6.119711550E-1,-1.024799943E0,-1.883679962E1,-5.117900085E1
6.219711550E-1,-9.759999514E-1,-1.960540009E1,-5.091059875E1
6.319711550E-1,-1.220000029E0,-2.053260040E1,-5.045919800E1
6.419711550E-1,-1.512799978E0,-2.137439919E1,-4.977599716E1
6.519711550E-1,-1.964200020E0,-2.211859894E1,-4.892200089E1
6.619711550E-1,-2.513200045E0,-2.264319992E1,-4.823880005E1
6.719711550E-1,-3.098799944E0,-2.308239937E1,-4.733599854E1
6.819711550E-1,-3.647799969E0,-2.294820023E1,-4.661619949E1
6.919711550E-1,-4.306600094E0,-2.255780029E1,-4.627460098E1
7.019711550E-1,-4.843400002E0,-2.236260033E1,-4.593299866E1
7.119711550E-1,-5.172800064E0,-2.203319931E1,-4.562799835E1
7.219711550E-1,-5.477799892E0,-2.155739975E1,-4.538399887E1
7.319711550E-1,-5.721799850E0,-2.115480042E1,-4.523759842E1
7.419711550E-1,-5.929199696E0,-2.077659988E1,-4.501799774E1
7.519711550E-1,-6.014599800E0,-2.047159958E1,-4.489599991E1
7.619711550E-1,-6.075599670E0,-2.020319939E1,-4.492039871E1
7.719711550E-1,-6.039000034E0,-2.009339905E1,-4.505459976E1
7.819711550E-1,-6.087800026E0,-2.010560036E1,-4.504240036E1
7.919711550E-1,-6.148799896E0,-2.005679893E1,-4.484719849E1
8.019711550E-1,-6.173199654E0,-2.008119965E1,-4.467639923E1
8.119711550E-1,-6.197599888E0,-2.008119965E1,-4.451779938E1
8.219711550E-1,-6.209799767E0,-2.011779976E1,-4.452999878E1
8.319711550E-1,-6.307399750E0,-2.010560036E1,-4.443239975E1
8.419711550E-1,-6.429399967E0,-2.020319939E1,-4.413959885E1
8.519711550E-1,-6.575799942E0,-2.021539879E1,-4.371260071E1
8.619711550E-1,-6.710000038E0,-2.003240013E1,-4.349300003E1
8.719711550E-1,-6.697799683E0,-1.994700050E1,-4.339540100E1
8.819711550E-1,-6.746599674E0,-1.986159897E1,-4.343199921E1
8.919711550E-1,-6.783199787E0,-1.976399994E1,-4.344419861E1
9.019711550E-1,-6.807600021E0,-1.967860031E1,-4.343199921E1
9.119711550E-1,-6.783199787E0,-1.962979889E1,-4.340760040E1
9.219711550E-1,-6.770999908E0,-1.955660057E1,-4.338319778E1
9.319711550E-1,-6.783199787E0,-1.941020012E1,-4.343199921E1
9.419711550E-1,-6.746599674E0,-1.933699989E1,-4.343199921E1
9.519711550E-1,-6.783199787E0,-1.928820038E1,-4.345639801E1
9.619711550E-1,-6.758800030E0,-1.927599907E1,-4.341979980E1
9.719711550E-1,-6.795399666E0,-1.928820038E1,-4.343199921E1
9.819711550E-1,-6.892999649E0,-1.927599907E1,-4.343199921E1
9.919711550E-1,-6.990599632E0,-1.938579941E1,-4.340760040E1
1.001971155E0,-7.137000084E0,-1.956879997E1,-4.327339935E1
1.011971155E0,-7.625000000E0,-1.984939957E1,-4.262680054E1
1.021971155E0,-8.076399803E0,-1.980060005E1,-4.200460052E1
1.031971155E0,-8.454599380E0,-1.965419960E1,-4.149219894E1
1.041971155E0,-8.869400024E0,-1.943459892E1,-4.102859879E1
1.051971155E0,-9.003600121E0,-1.901980019E1,-4.088219833E1
1.061971155E0,-8.979199409E0,-1.859280014E1,-4.086999893E1
1.071971155E0,-8.918199539E0,-1.816580009E1,-4.097979736E1
1.081971155E0,-8.771800041E0,-1.776319885E1,-4.115060043E1
1.091971155E0,-8.247200012E0,-1.732399940E1,-4.182159805E1
1.101971155E0,-7.710399628E0,-1.728739929E1,-4.248040009E1
1.111971155E0,-7.234600067E0,-1.731180000E1,-4.294400024E1
1.121971155E0,-6.734399796E0,-1.745820045E1,-4.330999756E1
1.131971155E0,-6.539199829E0,-1.765340042E1,-4.322459793E1
1.141971155E0,-6.404999733E0,-1.782419968E1,-4.296839905E1
1.151971155E0,-6.331799984E0,-1.783639908E1,-4.273659897E1
1.161971155E0,-6.270800114E0,-1.776319885E1,-4.256579971E1
1.171971155E0,-6.234200001E0,-1.779979897E1,-4.216320038E1
1.181971155E0,-6.185400009E0,-1.762899971E1,-4.161420059E1
1.191971155E0,-6.099999905E0,-1.727519989E1,-4.132139969E1
1.201971155E0,-6.087800026E0,-1.695800018E1,-4.111399841E1
1.211971155E0,-5.977999687E0,-1.673839951E1,-4.077239990E1
1.221971155E0,-6.002399921E0,-1.598199940E1,-4.108959961E1
1.231971155E0,-6.112199783E0,-1.534759998E1,-4.155319977E1
1.241971155E0,-6.246399879E0,-1.484739971E1,-4.209000015E1
1.251971155E0,-6.441599846E0,-1.426179981E1,-4.298059845E1
1.261971155E0,-6.673399925E0,-1.387139988E1,-4.390779877E1
1.271971155E0,-6.917399883E0,-1.363959980E1,-4.465200043E1
1.281971155E0,-7.149199963E0,-1.328579998E1,-4.539619827E1
1.291971155E0,-7.344399929E0,-1.293200016E1,-4.646979904E1
1.301971155E0,-7.490799904E0,-1.307839966E1,-4.693339920E1
1.311971155E0,-7.576200008E0,-1.307839966E1,-4.716519928E1
1.321971155E0,-7.649399757E0,-1.291979980E1,-4.738479996E1
1.331971155E0,-7.673799992E0,-1.265139961E1,-4.757999802E1
1.341971155E0,-7.685999870E0,-1.222439957E1,-4.800699997E1
1.351971155E0,-7.710399628E0,-1.167539978E1,-4.859259796E1
1.361971155E0,-7.685999870E0,-1.108979988E1,-4.925139999E1
1.371971155E0,-7.722599983E0,-1.051639938E1,-4.999559784E1
1.381971155E0,-7.734799862E0,-1.022359943E1,-5.091059875E1
1.391971155E0,-7.661599636E0,-1.007719994E1,-5.180120087E1
1.401971155E0,-7.527400017E0,-9.808799744E0,-5.264299774E1
1.411971155E0,-7.405399799E0,-9.442799568E0,-5.381419754E1
1.421971155E0,-7.429800034E0,-9.564800262E0,-5.575399780E1
1.431971155E0,-7.441999912E0,-1.026019955E1,-5.764500046E1
1.441971155E0,-7.502999783E0,-1.151679993E1,-5.943840027E1
1.451971155E0,-7.551799774E0,-1.326139927E1,-6.091460037E1
1.461971155E0,-7.698199749E0,-1.548180008E1,-6.143919754E1
1.471971155E0,-7.844599724E0,-1.759239960E1,-6.168319702E1
1.481971155E0,-8.088600159E0,-1.989819908E1,-6.195159912E1
1.491971155E0,-8.259399414E0,-2.235039902E1,-6.179299927E1
1.501971155E0,-8.344799995E0,-2.457079887E1,-6.048759842E1
1.511971155E0,-8.405799866E0,-2.638859940E1,-5.899919891E1
1.521971155E0,-8.418000221E0,-2.782819939E1,-5.737659836E1
