"Time (s)","Magnetic field x (µT)","Magnetic field y (µT)","Magnetic field z (µT)"
4.508564000E-2,-1.316379929E1,5.916999817E1,1.598199964E0
5.508564000E-2,-1.301739979E1,5.908459854E1,1.293200016E0
6.508564000E-2,-1.273680019E1,5.908459854E1,9.759999514E-1
7.508564000E-2,-1.261479950E1,5.908459854E1,5.856000185E-1
8.508564000E-2,-1.245619965E1,5.897480011E1,-9.759999812E-2
9.508564000E-2,-1.229759979E1,5.891379929E1,-6.953999996E-1
1.002875670E-1,-1.219999981E1,5.887719727E1,-1.110199928E0
1.050856400E-1,-1.206579971E1,5.879179764E1,-1.598199964E0
1.150856400E-1,-1.179739952E1,5.870639801E1,-2.647399902E0
1.250856400E-1,-1.141919994E1,5.852339935E1,-4.026000023E0
1.350856400E-1,-1.105319977E1,5.827939987E1,-5.477799892E0
1.450856400E-1,-1.066279984E1,5.793779755E1,-7.051599979E0
1.550856400E-1,-1.021140003E1,5.762059784E1,-8.625399590E0
1.650856400E-1,-9.662400246E0,5.704719925E1,-1.051639938E1
1.750856400E-1,-9.027999878E0,5.638839722E1,-1.270020008E1
1.850856400E-1,-8.381400108E0,5.563199997E1,-1.489620018E1
1.950856400E-1,-7.673799992E0,5.469260025E1,-1.716539955E1
2.050856400E-1,-6.929599762E0,5.361899948E1,-1.954439926E1
2.150856400E-1,-6.197599888E0,5.241119766E1,-2.202099991E1
2.250856400E-1,-5.453399658E0,5.114239883E1,-2.448539925E1
2.350856400E-1,-4.709199905E0,4.975159836E1,-2.693759918E1
2.450856400E-1,-3.916199923E0,4.822660065E1,-2.941419983E1
2.550856400E-1,-3.184200048E0,4.660400009E1,-3.186639977E1
2.650856400E-1,-2.427799940E0,4.494479752E1,-3.431859970E1
2.750856400E-1,-1.732399940E0,4.320019913E1,-3.668539810E1
2.850856400E-1,-1.146799922E0,4.151659775E1,-3.871059799E1
2.950856400E-1,-5.367999673E-1,3.956459808E1,-4.080899811E1
3.050856400E-1,1.097999960E-1,3.757600021E1,-4.289519882E1
3.150856400E-1,6.710000038E-1,3.557519913E1,-4.490819931E1
3.250856400E-1,1.158999920E0,3.373299789E1,-4.654299927E1
3.350856400E-1,1.732399940E0,3.169559860E1,-4.823880005E1
3.450856400E-1,2.281399965E0,2.964599991E1,-4.988579941E1
3.550856400E-1,2.818199873E0,2.762080002E1,-5.143519974E1
3.650856400E-1,3.269599915E0,2.565659904E1,-5.292359924E1
3.750856400E-1,3.733199835E0,2.368019867E1,-5.430220032E1
3.850856400E-1,4.099199772E0,2.172819901E1,-5.553439713E1
3.950856400E-1,4.538399696E0,1.983720016E1,-5.662019730E1
4.050856400E-1,4.843400002E0,1.798279953E1,-5.771820068E1
4.150856400E-1,5.136199951E0,1.617720032E1,-5.860879898E1
4.250856400E-1,5.331399918E0,1.444479942E1,-5.951160049E1
4.350856400E-1,5.514400005E0,1.273680019E1,-6.030459976E1
4.450856400E-1,5.709599972E0,1.102880001E1,-6.103659821E1
4.550856400E-1,5.831599712E0,9.503799438E0,-6.161000061E1
4.650856400E-1,5.929199696E0,8.015399933E0,-6.213459778E1
4.750856400E-1,5.916999817E0,6.587999821E0,-6.262260056E1
4.850856400E-1,5.904799938E0,5.270400047E0,-6.308619690E1
4.950856400E-1,5.843800068E0,4.099199772E0,-6.347660065E1
5.050856400E-1,5.746200085E0,2.879199982E0,-6.370839691E1
5.150856400E-1,5.648600101E0,1.781199932E0,-6.403779602E1
5.250856400E-1,5.526599884E0,7.685999870E-1,-6.426959991E1
5.350856400E-1,5.319200039E0,-1.341999918E-1,-6.447699738E1
5.450856400E-1,5.062999725E0,-9.759999514E-1,-6.464779663E1
5.550856400E-1,4.806799889E0,-1.768999934E0,-6.486740112E1
5.650856400E-1,4.526199818E0,-2.549799919E0,-6.501380157E1
5.750856400E-1,4.135799885E0,-3.281800032E0,-6.509919739E1
5.850856400E-1,3.720999956E0,-3.879599810E0,-6.531880188E1
5.950856400E-1,3.208600044E0,-4.416399956E0,-6.534320068E1
6.050856400E-1,2.684000015E0,-4.940999985E0,-6.547740173E1
6.150856400E-1,2.073999882E0,-5.319200039E0,-6.551399994E1
6.250856400E-1,1.463999987E0,-5.758399963E0,-6.555059814E1
6.350856400E-1,8.417999744E-1,-6.124399662E0,-6.561159515E1
6.450856400E-1,1.708000004E-1,-6.453799725E0,-6.559939575E1
6.550856400E-1,-5.733999610E-1,-6.722199917E0,-6.562380219E1
6.650856400E-1,-1.366400003E0,-6.941799641E0,-6.545299530E1
6.750856400E-1,-2.183799982E0,-7.197999954E0,-6.544079590E1
6.850856400E-1,-3.062199831E0,-7.393199921E0,-6.534320068E1
6.950856400E-1,-3.806399822E0,-7.576200008E0,-6.531880188E1
7.050856400E-1,-4.745800018E0,-7.612799644E0,-6.529439545E1
7.150856400E-1,-5.672999859E0,-7.710399628E0,-6.523339844E1
7.250856400E-1,-6.722199917E0,-7.698199749E0,-6.520899963E1
7.350856400E-1,-7.661599636E0,-7.600599766E0,-6.513579559E1
7.450856400E-1,-8.759599686E0,-7.466399670E0,-6.518460083E1
7.550856400E-1,-9.808799744E0,-7.295599937E0,-6.522119904E1
7.650856400E-1,-1.088239956E1,-7.124799728E0,-6.519680023E1
7.750856400E-1,-1.205359936E1,-6.941799641E0,-6.517240143E1
7.850856400E-1,-1.323699951E1,-6.710000038E0,-6.512359619E1
7.950856400E-1,-1.445699978E1,-6.429399967E0,-6.507479858E1
8.050856400E-1,-1.561599922E1,-6.160999775E0,-6.503820038E1
8.150856400E-1,-1.687260056E1,-5.929199696E0,-6.507479858E1
8.250856400E-1,-1.798279953E1,-5.636399746E0,-6.505039978E1
8.350856400E-1,-1.915399933E1,-5.368000031E0,-6.501380157E1
8.450856400E-1,-2.030080032E1,-5.014199734E0,-6.505039978E1
8.550856400E-1,-2.141099930E1,-4.697000027E0,-6.503820038E1
8.650856400E-1,-2.241139984E1,-4.343199730E0,-6.512359619E1
8.750856400E-1,-2.337520027E1,-3.964999914E0,-6.513579559E1
8.850856400E-1,-2.427799988E1,-3.635599852E0,-6.519680023E1
8.950856400E-1,-2.508320045E1,-3.257400036E0,-6.528219604E1
9.050856400E-1,-2.579080009E1,-2.854799986E0,-6.536759949E1
9.150856400E-1,-2.644960022E1,-2.378999949E0,-6.541639709E1
9.250856400E-1,-2.703520012E1,-1.939799905E0,-6.556279755E1
9.350856400E-1,-2.749880028E1,-1.451799989E0,-6.575799561E1
9.450856400E-1,-2.779159927E1,-1.073599935E0,-6.590439606E1
9.550856400E-1,-2.808440018E1,-6.344000101E-1,-6.612400055E1
9.650856400E-1,-2.823079872E1,-1.464000046E-1,-6.629479980E1
9.750856400E-1,-2.829179955E1,3.781999946E-1,-6.647779846E1
9.850856400E-1,-2.815760040E1,8.661999702E-1,-6.675839996E1
9.950856400E-1,-2.787699890E1,1.268800020E0,-6.703900146E1
1.005085640E0,-2.748659897E1,1.671399951E0,-6.729519653E1
1.015085640E0,-2.701079941E1,2.061800003E0,-6.752700043E1
1.025085640E0,-2.635199928E1,2.500999928E0,-6.786859894E1
1.035085640E0,-2.552239990E1,2.830399990E0,-6.814920044E1
1.045085640E0,-2.459519958E1,3.208600044E0,-6.846640015E1
1.055085640E0,-2.361919975E1,3.513599873E0,-6.878359985E1
1.065085640E0,-2.244799995E1,3.733199835E0,-6.918619537E1
1.075085640E0,-2.126459885E1,4.050399780E0,-6.956439972E1
1.085085640E0,-1.998359871E1,4.355400085E0,-6.995479584E1
1.095085640E0,-1.864159966E1,4.635999680E0,-7.028419495E1
1.105085640E0,-1.705559921E1,4.867799759E0,-7.063800049E1
1.115085640E0,-1.539639950E1,5.087399960E0,-7.110160065E1
1.125085640E0,-1.374940014E1,5.233799934E0,-7.161399841E1
1.135085640E0,-1.199259949E1,5.294799805E0,-7.201660156E1
1.145085640E0,-1.033339977E1,5.404599667E0,-7.238259888E1
1.155085640E0,-8.393599510E0,5.428999901E0,-7.279740143E1
1.165085640E0,-6.392799854E0,5.453399658E0,-7.324880219E1
1.175085640E0,-4.379799843E0,5.404599667E0,-7.377339935E1
1.185085640E0,-2.586400032E0,5.319200039E0,-7.423699951E1
1.195085640E0,-6.588000059E-1,5.221600056E0,-7.473719788E1
1.205085640E0,1.354200006E0,5.075200081E0,-7.518859863E1
1.215085640E0,3.403800011E0,5.038599968E0,-7.573760223E1
1.225085640E0,5.380199909E0,4.806799889E0,-7.626219940E1
1.235085640E0,7.332200050E0,4.574999809E0,-7.681119537E1
1.245085640E0,9.235400200E0,4.257800102E0,-7.731140137E1
1.255085640E0,1.111419964E1,3.989399910E0,-7.787259674E1
1.265085640E0,1.295639992E1,3.708799839E0,-7.849479675E1
1.275085640E0,1.468879986E1,3.367199898E0,-7.911699677E1
1.285085640E0,1.640900040E1,3.013399839E0,-7.973919678E1
1.295085640E0,1.798279953E1,2.574199915E0,-8.036139679E1
1.305085640E0,1.947119904E1,2.195999861E0,-8.099579620E1
1.315085640E0,2.081320000E1,1.720199943E0,-8.173999786E1
1.325085640E0,2.208199883E1,1.268800020E0,-8.249639893E1
1.335085640E0,2.318000031E1,7.563999891E-1,-8.327719879E1
1.345085640E0,2.415600014E1,1.219999939E-1,-8.397259521E1
1.355085640E0,2.502219963E1,-6.710000038E-1,-8.466799927E1
1.365085640E0,2.569319916E1,-1.549399972E0,-8.532679749E1
1.375085640E0,2.625440025E1,-2.586400032E0,-8.592459869E1
1.385085640E0,2.680340004E1,-3.733199835E0,-8.636380005E1
1.395085640E0,2.729139900E1,-4.989799976E0,-8.665660095E1
1.405085640E0,2.776719856E1,-6.282999992E0,-8.703479767E1
1.415085640E0,2.827960014E1,-7.625000000E0,-8.751059723E1
1.425085640E0,2.875539970E1,-9.027999878E0,-8.803520203E1
1.435085640E0,2.920679855E1,-1.073600006E1,-8.859639740E1
1.445085640E0,2.963379860E1,-1.254160023E1,-8.915760040E1
1.455085640E0,3.015839958E1,-1.437160015E1,-8.975540161E1
1.465085640E0,3.067079926E1,-1.617720032E1,-9.032879639E1
1.475085640E0,3.119540024E1,-1.803159904E1,-9.073139954E1
1.485085640E0,3.163459969E1,-1.989819908E1,-9.088999939E1
1.495085640E0,3.206159973E1,-2.177700043E1,-9.085340118E1
1.505085640E0,3.251300049E1,-2.347279930E1,-9.063379669E1
1.515085640E0,3.301319885E1,-2.471719933E1,-9.009700012E1
1.525085640E0,3.351340103E1,-2.575419998E1,-8.960900116E1
1.535085640E0,3.397700119E1,-2.662039948E1,-8.903559875E1
1.545085640E0,3.441619873E1,-2.730360031E1,-8.848659515E1
