"Time (s)","Magnetic Field x (µT)","Magnetic Field y (µT)","Magnetic Field z (µT)","Absolute field (µT)"
1.381737499E-2,2.035363770E1,-3.335872650E1,-2.327050781E1,4.548177366E1
2.379237500E-2,2.012037659E1,-3.331745148E1,-2.330490112E1,4.536519088E1
3.376637500E-2,1.992979431E1,-3.323730469E1,-2.363043213E1,4.539066475E1
4.374037500E-2,1.943518066E1,-3.300061798E1,-2.461166382E1,4.552472988E1
5.371537500E-2,1.921516418E1,-3.273705292E1,-2.499066162E1,4.544744588E1
6.368937500E-2,1.908729553E1,-3.257269287E1,-2.537506104E1,4.548844792E1
7.366337500E-2,1.890919495E1,-3.222319031E1,-2.592218018E1,4.547363051E1
8.363837500E-2,1.870513916E1,-3.204985809E1,-2.623532104E1,4.544631674E1
9.361237500E-2,1.877204895E1,-3.166346741E1,-2.656430054E1,4.539413016E1
1.035863750E-1,1.855119324E1,-3.155743408E1,-2.668917847E1,4.530265625E1
1.135603750E-1,1.839123535E1,-3.127647400E1,-2.733139038E1,4.542532624E1
1.235353750E-1,1.827555847E1,-3.085635376E1,-2.785479736E1,4.540925391E1
1.335093750E-1,1.790879822E1,-3.083707428E1,-2.840982056E1,4.559350949E1
1.434833750E-1,1.753709412E1,-3.062705231E1,-2.874716187E1,4.551884575E1
1.534583750E-1,1.710394287E1,-3.028780365E1,-2.934762573E1,4.551020817E1
1.634323750E-1,1.663102722E1,-2.972012329E1,-3.012271118E1,4.546707076E1
1.734063750E-1,1.602500916E1,-2.926246643E1,-3.099194336E1,4.553672598E1
1.833813750E-1,1.536434937E1,-2.865209198E1,-3.166928101E1,4.538666066E1
1.933553750E-1,1.477720642E1,-2.802290344E1,-3.251004028E1,4.539329979E1
2.033293750E-1,1.410615540E1,-2.734489441E1,-3.318411255E1,4.525386388E1
2.133043750E-1,1.369386292E1,-2.650176239E1,-3.405746460E1,4.527445401E1
2.232783750E-1,1.368638611E1,-2.649942780E1,-3.402770996E1,4.524844620E1
2.332523750E-1,1.321043396E1,-2.561937714E1,-3.484170532E1,4.521960283E1
2.432263750E-1,1.270964050E1,-2.484629822E1,-3.574212646E1,4.534725020E1
2.532013750E-1,1.220904541E1,-2.419716644E1,-3.634826660E1,4.534049116E1
2.631753750E-1,1.183108521E1,-2.345272827E1,-3.707159424E1,4.543465792E1
2.731493750E-1,1.132588196E1,-2.269164276E1,-3.774929810E1,4.547742033E1
2.831243750E-1,1.077774048E1,-2.199170685E1,-3.813177490E1,4.531916942E1
2.930983750E-1,1.018016052E1,-2.153033447E1,-3.883560181E1,4.555650270E1
3.030723750E-1,9.597915649E0,-2.127930450E1,-3.898181152E1,4.543688386E1
3.130473750E-1,9.021835327E0,-2.113488770E1,-3.886862183E1,4.515359070E1
3.230213750E-1,8.441604614E0,-2.112068939E1,-3.909301758E1,4.522840073E1
3.329953750E-1,7.862350464E0,-2.137100220E1,-3.916241455E1,4.530155630E1
3.429703750E-1,7.307113647E0,-2.157392120E1,-3.909545898E1,4.524691038E1
3.529443750E-1,7.009216309E0,-2.182867432E1,-3.878552246E1,4.505482092E1
3.629183750E-1,6.685867310E0,-2.206770325E1,-3.887988281E1,4.520320382E1
3.728933750E-1,6.252639771E0,-2.236122131E1,-3.877047729E1,4.519147743E1
3.828673750E-1,6.275512695E0,-2.245908356E1,-3.876367188E1,4.523731591E1
3.928413750E-1,6.210708618E0,-2.248488617E1,-3.866711426E1,4.515848461E1
4.028153750E-1,6.164550781E0,-2.251035309E1,-3.849597168E1,4.501841310E1
4.127903750E-1,6.183990479E0,-2.265773010E1,-3.842001343E1,4.503012218E1
4.227643750E-1,6.239013672E0,-2.273458099E1,-3.817163086E1,4.486490685E1
4.327383750E-1,6.235031128E0,-2.281102753E1,-3.818801880E1,4.491707214E1
4.427133750E-1,6.120681763E0,-2.295620728E1,-3.815286255E1,4.494542378E1
4.526873750E-1,6.292449951E0,-2.333444214E1,-3.778201294E1,4.485054758E1
4.626613750E-1,6.291091919E0,-2.354885864E1,-3.771432495E1,4.490542158E1
4.726363750E-1,6.368408203E0,-2.363279724E1,-3.770974731E1,4.495654314E1
4.826103750E-1,6.316650391E0,-2.374414825E1,-3.765127563E1,4.495890574E1
4.925843750E-1,6.319473267E0,-2.386464691E1,-3.762420654E1,4.500042258E1
5.025593750E-1,6.289703369E0,-2.415507507E1,-3.748571777E1,4.503561987E1
5.125333750E-1,6.390563965E0,-2.434178162E1,-3.720892334E1,4.492065912E1
5.225073750E-1,6.440063477E0,-2.445263672E1,-3.709548950E1,4.489411099E1
5.324823750E-1,6.439376831E0,-2.468466949E1,-3.730877686E1,4.519671794E1
5.424563750E-1,6.480163574E0,-2.461610413E1,-3.723074341E1,4.510070240E1
5.524303750E-1,6.319915771E0,-2.478184509E1,-3.708468628E1,4.504836443E1
5.624043750E-1,6.311752319E0,-2.479965210E1,-3.695385742E1,4.494939977E1
5.723793750E-1,6.314727783E0,-2.486253357E1,-3.688040161E1,4.492421825E1
5.823533750E-1,6.281524658E0,-2.482240295E1,-3.689511108E1,4.490944736E1
5.923273750E-1,6.215606689E0,-2.483329010E1,-3.695730591E1,4.495740788E1
6.023051250E-1,6.235214233E0,-2.475955200E1,-3.685650635E1,4.483654059E1
6.122791250E-1,6.303710938E0,-2.478898621E1,-3.677056885E1,4.479179994E1
6.222531250E-1,6.400863647E0,-2.477321625E1,-3.695526123E1,4.494857763E1
6.322281250E-1,6.484573364E0,-2.477674103E1,-3.680960083E1,4.484287347E1
6.422021250E-1,6.557342529E0,-2.500520325E1,-3.660610962E1,4.481368309E1
6.521761250E-1,6.660644531E0,-2.490859985E1,-3.663973999E1,4.480260125E1
6.621511250E-1,6.764144897E0,-2.487804413E1,-3.664868164E1,4.480844342E1
6.721251250E-1,6.703857422E0,-2.509085846E1,-3.666757202E1,4.493332528E1
6.820991250E-1,6.585632324E0,-2.502999878E1,-3.651455688E1,4.475694646E1
6.920731250E-1,6.497314453E0,-2.517814636E1,-3.645007324E1,4.477456855E1
7.020481250E-1,6.631042480E0,-2.515234375E1,-3.640670776E1,4.474437943E1
7.120221250E-1,6.594284058E0,-2.518352509E1,-3.638705444E1,4.474049898E1
7.219961250E-1,6.561706543E0,-2.514102173E1,-3.621676636E1,4.457332309E1
7.319711250E-1,6.621292114E0,-2.517488098E1,-3.638088989E1,4.473460954E1
7.419451250E-1,6.586135864E0,-2.510066986E1,-3.627587891E1,4.460224438E1
7.519191250E-1,6.547744751E0,-2.528392029E1,-3.641275024E1,4.481113664E1
7.618941250E-1,6.496643066E0,-2.536350250E1,-3.611407471E1,4.460650202E1
7.718681250E-1,6.548828125E0,-2.541043091E1,-3.603594971E1,4.457764933E1
7.818421250E-1,6.433395386E0,-2.545156860E1,-3.591537476E1,4.448690891E1
7.918171250E-1,6.313369751E0,-2.545172882E1,-3.597433472E1,4.451743362E1
8.017911250E-1,6.360824585E0,-2.553722382E1,-3.593658447E1,4.454265364E1
8.117651250E-1,6.352447510E0,-2.560354614E1,-3.610421753E1,4.471475917E1
8.217391250E-1,6.293731689E0,-2.578803253E1,-3.569338989E1,4.448203865E1
8.317141250E-1,6.293731689E0,-2.578803253E1,-3.569338989E1,4.448203865E1
8.416881250E-1,6.153121948E0,-2.586106110E1,-3.582015991E1,4.460649333E1
8.516621250E-1,6.107543945E0,-2.594725037E1,-3.574041748E1,4.458631333E1
8.616371250E-1,5.916671753E0,-2.607888031E1,-3.576922607E1,4.466041353E1
8.716111250E-1,5.846450806E0,-2.623674774E1,-3.558572388E1,4.459699164E1
8.815851250E-1,5.793182373E0,-2.612649536E1,-3.565808105E1,4.458310741E1
8.915601250E-1,5.663619995E0,-2.606002045E1,-3.555279541E1,4.444325054E1
9.015341250E-1,5.612487793E0,-2.597187042E1,-3.584719849E1,4.462129213E1
9.115081250E-1,5.757522583E0,-2.591019440E1,-3.583200073E1,4.459169784E1
9.214831250E-1,5.870529175E0,-2.580954742E1,-3.579806519E1,4.452075159E1
9.314571250E-1,5.926544189E0,-2.580554199E1,-3.574664307E1,4.448451881E1
9.414311250E-1,5.984741211E0,-2.577634430E1,-3.599114990E1,4.467213812E1
9.514051250E-1,5.912216187E0,-2.570186615E1,-3.592813110E1,4.456872029E1
9.613801250E-1,5.894317627E0,-2.568569946E1,-3.622244263E1,4.479468146E1
9.713541250E-1,5.954040527E0,-2.549597168E1,-3.602105713E1,4.453101983E1
9.813281250E-1,5.979248047E0,-2.554112244E1,-3.579443359E1,4.437726691E1
9.913031250E-1,5.861328125E0,-2.543916321E1,-3.590509033E1,4.439236087E1
1.001277125E0,5.705017090E0,-2.553239441E1,-3.605679321E1,4.454820671E1
1.011251125E0,5.639556885E0,-2.553050232E1,-3.586108398E1,4.438049679E1
1.021226125E0,5.603790283E0,-2.554090118E1,-3.577398682E1,4.431160380E1
1.031200125E0,5.634277344E0,-2.553711700E1,-3.561846924E1,4.418783517E1
1.041174125E0,5.564712524E0,-2.544722748E1,-3.566827393E1,4.416733155E1
1.051149125E0,5.541030884E0,-2.556726837E1,-3.587890625E1,4.440365018E1
1.061123125E0,5.833221436E0,-2.550827789E1,-3.573779297E1,4.429321121E1
1.071097125E0,6.078384399E0,-2.546086884E1,-3.561318970E1,4.419843752E1
1.081071125E0,6.043823242E0,-2.559028625E1,-3.558639526E1,4.424683127E1
1.091046125E0,6.227020264E0,-2.544246674E1,-3.569332886E1,4.427311396E1
1.101020125E0,6.369537354E0,-2.547191620E1,-3.541256714E1,4.408445794E1
1.110994125E0,6.453689575E0,-2.540678406E1,-3.535763550E1,4.401496533E1
1.120969125E0,6.543487549E0,-2.541279602E1,-3.540972900E1,4.407353332E1
1.130943125E0,6.690551758E0,-2.520593262E1,-3.541442871E1,4.398049889E1
1.140917125E0,6.790969849E0,-2.519889832E1,-3.532141113E1,4.391701074E1
1.150892125E0,6.829193115E0,-2.506761932E1,-3.519808960E1,4.374847344E1
1.160866125E0,6.645614624E0,-2.527188873E1,-3.543234253E1,4.402594066E1
1.170840125E0,6.815200806E0,-2.520739746E1,-3.563751221E1,4.418022323E1
1.180815125E0,6.711318970E0,-2.525808716E1,-3.557305908E1,4.414131060E1
1.190789125E0,6.815628052E0,-2.511319733E1,-3.556454468E1,4.406770137E1
1.200763125E0,6.793090820E0,-2.502912140E1,-3.556008911E1,4.401275881E1
1.210737125E0,6.729980469E0,-2.504640198E1,-3.553558350E1,4.399309700E1
1.220712125E0,6.768600464E0,-2.503907013E1,-3.545355225E1,4.392861655E1
1.230686125E0,6.892364502E0,-2.508678436E1,-3.537957764E1,4.391544093E1
1.240660125E0,7.074707031E0,-2.493128204E1,-3.556753540E1,4.400761160E1
1.250635125E0,7.088867188E0,-2.485291290E1,-3.556887817E1,4.396662839E1
1.260609125E0,7.221420288E0,-2.486466980E1,-3.553036499E1,4.396370721E1
1.270583125E0,7.272216797E0,-2.485224915E1,-3.542660522E1,4.388124636E1
1.280558125E0,7.282150269E0,-2.471605682E1,-3.524047852E1,4.365552088E1
1.290532125E0,7.324478149E0,-2.468444061E1,-3.527679443E1,4.367404051E1
1.300506125E0,7.361236572E0,-2.466120148E1,-3.541213989E1,4.377650413E1
1.310481125E0,7.386886597E0,-2.463322449E1,-3.537634277E1,4.373611174E1
1.320455125E0,7.426467896E0,-2.453090668E1,-3.542739868E1,4.372663245E1
1.330429125E0,7.489532471E0,-2.444751740E1,-3.547677612E1,4.373071972E1
1.340403125E0,7.498107910E0,-2.448489380E1,-3.518225098E1,4.351462318E1
1.350378125E0,7.517913818E0,-2.453098297E1,-3.535565186E1,4.368421078E1
1.360352125E0,7.467208862E0,-2.454117584E1,-3.523480225E1,4.358348092E1
1.370326125E0,7.519470215E0,-2.459520721E1,-3.527355957E1,4.365421692E1
1.380301125E0,7.586715698E0,-2.443360901E1,-3.520764160E1,4.352169036E1
1.390275125E0,7.506790161E0,-2.444766235E1,-3.520898438E1,4.351680909E1
1.400249125E0,7.556777954E0,-2.432751465E1,-3.528363037E1,4.351858723E1
1.410224125E0,7.647277832E0,-2.423828125E1,-3.520343018E1,4.341954206E1
1.420198125E0,7.549728394E0,-2.439344788E1,-3.523617554E1,4.351582200E1
1.430172125E0,7.649932861E0,-2.427681732E1,-3.521417236E1,4.345023898E1
1.440146125E0,7.649932861E0,-2.427681732E1,-3.521417236E1,4.345023898E1
1.450121125E0,7.735549927E0,-2.435604858E1,-3.502514648E1,4.335685322E1
1.460095125E0,7.557739258E0,-2.428731537E1,-3.507128906E1,4.332422448E1
1.470069125E0,7.491333008E0,-2.439611816E1,-3.511749268E1,4.341116151E1
1.480044125E0,7.486038208E0,-2.443077087E1,-3.504690552E1,4.337267481E1
1.490018125E0,7.504989624E0,-2.451171112E1,-3.475143433E1,4.318345793E1
1.499992125E0,7.546813965E0,-2.447042847E1,-3.471737671E1,4.313991789E1
1.509967125E0,7.561935425E0,-2.451767731E1,-3.468566895E1,4.314388715E1
1.519941125E0,7.558227539E0,-2.443359375E1,-3.489672852E1,4.326556331E1
1.529915125E0,7.446853638E0,-2.436406708E1,-3.488159180E1,4.319477792E1
1.539889125E0,7.402694702E0,-2.438098907E1,-3.477905273E1,4.311397716E1
1.549864125E0,7.307830811E0,-2.430245972E1,-3.474584961E1,4.302659648E1
1.559838125E0,7.425674438E0,-2.424716187E1,-3.472354126E1,4.299755594E1
1.569812125E0,7.238693237E0,-2.450481415E1,-3.443576050E1,4.288013756E1
1.579787125E0,7.259628296E0,-2.432670593E1,-3.466885376E1,4.296999238E1
1.589761125E0,7.278152466E0,-2.434107971E1,-3.455166626E1,4.288679641E1
1.599735125E0,7.261795044E0,-2.446549225E1,-3.456106567E1,4.296232348E1
1.609706750E0,7.301162720E0,-2.444800568E1,-3.435876465E1,4.279645624E1
1.619680750E0,7.297927856E0,-2.455776978E1,-3.438333130E1,4.287840107E1
1.629654750E0,7.297897339E0,-2.469209290E1,-3.411709595E1,4.274266011E1
1.639629750E0,7.163406372E0,-2.460088348E1,-3.424426270E1,4.276900030E1
1.649603750E0,7.156417847E0,-2.458169556E1,-3.425872803E1,4.276838223E1
1.659577750E0,7.143737793E0,-2.465033722E1,-3.416503906E1,4.273080866E1
1.669551750E0,6.986770630E0,-2.461506653E1,-3.413751221E1,4.266246833E1
1.679526750E0,6.867309570E0,-2.470581818E1,-3.443399048E1,4.293293716E1
1.689500750E0,6.666458130E0,-2.478475952E1,-3.412722778E1,4.270121362E1
1.699474750E0,6.646774292E0,-2.489839172E1,-3.417065430E1,4.279886837E1
1.709449750E0,6.519897461E0,-2.495996094E1,-3.390890503E1,4.260660223E1
1.719423750E0,6.547424316E0,-2.502160645E1,-3.387503052E1,4.262003340E1
1.729397750E0,6.577163696E0,-2.509716797E1,-3.362976074E1,4.247455391E1
1.739372750E0,6.469863892E0,-2.513758087E1,-3.366265869E1,4.250801926E1
1.749346750E0,6.413101196E0,-2.519798279E1,-3.348580933E1,4.239534915E1
1.759320750E0,6.482345581E0,-2.539332581E1,-3.339916992E1,4.245404988E1
1.769294750E0,6.463043213E0,-2.528462219E1,-3.345812988E1,4.243264666E1
1.779269750E0,6.418151855E0,-2.536822510E1,-3.336535645E1,4.240267124E1
1.789243750E0,6.205612183E0,-2.536367035E1,-3.337530518E1,4.237612998E1
1.799217750E0,6.209197998E0,-2.535783386E1,-3.320028687E1,4.223544632E1
1.809192750E0,6.171356201E0,-2.528184509E1,-3.320626831E1,4.218902208E1
1.819166750E0,6.013931274E0,-2.531672668E1,-3.324563599E1,4.221819906E1
1.829140750E0,5.920944214E0,-2.545089722E1,-3.328872681E1,4.231955909E1
1.839115750E0,5.874282837E0,-2.535402679E1,-3.336071777E1,4.231159846E1
1.849089750E0,5.902069092E0,-2.540609741E1,-3.314355469E1,4.217581561E1
1.859063750E0,5.880554199E0,-2.548438263E1,-3.297552490E1,4.208823967E1
1.869037750E0,5.907699585E0,-2.542470551E1,-3.283081055E1,4.194256413E1
1.879012750E0,5.888259888E0,-2.553029633E1,-3.276043701E1,4.194894359E1
1.888986750E0,5.856124878E0,-2.559309387E1,-3.275863647E1,4.198129246E1
1.898960750E0,5.833679199E0,-2.562348175E1,-3.270724487E1,4.195662638E1
1.908935750E0,5.802001953E0,-2.560207367E1,-3.269982910E1,4.193337842E1
1.918909750E0,5.778976440E0,-2.566213226E1,-3.280841064E1,4.205155657E1
1.928883750E0,5.927459717E0,-2.559886169E1,-3.294039917E1,4.213675825E1
1.938858750E0,5.874084473E0,-2.551612091E1,-3.293389893E1,4.207397049E1
1.948832750E0,6.003463745E0,-2.542700195E1,-3.279837036E1,4.193217266E1
1.958806750E0,5.952850342E0,-2.544626617E1,-3.270788574E1,4.186591309E1
1.968781750E0,5.880493164E0,-2.541895294E1,-3.264443970E1,4.178950600E1
1.978755750E0,6.041610718E0,-2.548299408E1,-3.249615479E1,4.173588532E1
1.988729750E0,5.913330078E0,-2.549669647E1,-3.256994629E1,4.178337474E1
1.998703750E0,6.014678955E0,-2.531470490E1,-3.254129028E1,4.166468793E1
2.008678750E0,6.017379761E0,-2.519299316E1,-3.261642456E1,4.165005300E1
2.018652750E0,6.088134766E0,-2.526078796E1,-3.282714844E1,4.186638828E1
2.028626750E0,6.168548584E0,-2.525220490E1,-3.270315552E1,4.177584499E1
2.038601750E0,6.101531982E0,-2.535733795E1,-3.236544800E1,4.156615817E1
2.048575750E0,6.101531982E0,-2.535733795E1,-3.236544800E1,4.156615817E1
2.058549750E0,6.132766724E0,-2.527914429E1,-3.247909546E1,4.161174841E1
2.068524750E0,6.165863037E0,-2.529430389E1,-3.240771484E1,4.157017751E1
2.078498750E0,6.254943848E0,-2.510929108E1,-3.237908936E1,4.144883893E1
2.088472750E0,6.196594238E0,-2.507310486E1,-3.238784790E1,4.142500524E1
2.098446750E0,6.246475220E0,-2.498220062E1,-3.226248169E1,4.127949279E1
2.108421750E0,6.267410278E0,-2.494185638E1,-3.219845581E1,4.120821748E1
2.118395750E0,6.279663086E0,-2.506262970E1,-3.224560547E1,4.132007560E1
2.128369750E0,6.204010010E0,-2.508611298E1,-3.238531494E1,4.143200971E1
2.138344750E0,6.075271606E0,-2.516963959E1,-3.226593018E1,4.137039923E1
2.148318750E0,6.082550049E0,-2.511875153E1,-3.218441772E1,4.127694075E1
2.158292750E0,6.179351807E0,-2.508840179E1,-3.207080078E1,4.118432415E1
2.168267750E0,6.102218628E0,-2.510745239E1,-3.210101318E1,4.120796386E1
2.178241750E0,6.108917236E0,-2.500275421E1,-3.205197144E1,4.110700014E1
2.188215750E0,6.021652222E0,-2.503788757E1,-3.194378662E1,4.103122729E1
2.198189750E0,5.961151123E0,-2.506894684E1,-3.186508179E1,4.098012757E1
2.208164750E0,5.938888550E0,-2.508507538E1,-3.187557983E1,4.099492644E1
2.218138750E0,5.907348633E0,-2.516472626E1,-3.207415771E1,4.119358941E1
2.228112750E0,5.862609863E0,-2.509460449E1,-3.197332764E1,4.106583798E1
2.238087750E0,5.863403320E0,-2.507340240E1,-3.196163940E1,4.104389601E1
2.248061750E0,6.033325195E0,-2.484502411E1,-3.188992310E1,4.087350524E1
2.258035750E0,5.947128296E0,-2.492222595E1,-3.195486450E1,4.095850396E1
2.268010750E0,5.888351440E0,-2.487725067E1,-3.158166504E1,4.063190680E1
2.277984750E0,5.875061035E0,-2.485403442E1,-3.174539185E1,4.074321137E1
2.287958750E0,5.757888794E0,-2.479640198E1,-3.185833740E1,4.077951074E1
2.297932750E0,5.660110474E0,-2.487519836E1,-3.185351562E1,4.081003310E1
2.307907750E0,5.673217773E0,-2.457967377E1,-3.201394653E1,4.075829406E1
2.317881750E0,5.503448486E0,-2.451074219E1,-3.202426147E1,4.070156939E1
2.327855750E0,5.401168823E0,-2.445523834E1,-3.186227417E1,4.052697648E1
2.337830750E0,5.468002319E0,-2.435852051E1,-3.209020996E1,4.065732586E1
2.347804750E0,5.572891235E0,-2.430128479E1,-3.215463257E1,4.068820412E1
2.357778750E0,5.517364502E0,-2.416610718E1,-3.211477661E1,4.056847204E1
2.367753750E0,5.683364868E0,-2.409567261E1,-3.195016479E1,4.041924177E1
2.377727750E0,5.564346313E0,-2.393302155E1,-3.218194580E1,4.048986423E1
2.387701750E0,5.481521606E0,-2.405030060E1,-3.192318726E1,4.034295382E1
2.397675750E0,5.729095459E0,-2.396537781E1,-3.194348145E1,4.034287886E1
2.407650750E0,5.674804688E0,-2.391027832E1,-3.209671021E1,4.042404759E1
2.417624750E0,5.518341064E0,-2.392344666E1,-3.198376465E1,4.032052317E1
2.427598750E0,5.589309692E0,-2.377985382E1,-3.179067993E1,4.009200869E1
2.437573750E0,5.430221558E0,-2.393286133E1,-3.184848022E1,4.020690053E1
2.447547750E0,5.304367065E0,-2.385472107E1,-3.190060425E1,4.018497952E1
2.457521750E0,5.416213989E0,-2.369952393E1,-3.206539917E1,4.023919274E1
2.467496750E0,5.296768188E0,-2.371550751E1,-3.187051392E1,4.007755864E1
2.477470750E0,5.350662231E0,-2.365307617E1,-3.182891846E1,4.001471790E1
2.487444750E0,5.464538574E0,-2.356275940E1,-3.173080444E1,3.989873135E1
2.497418750E0,5.420059204E0,-2.354456329E1,-3.156420898E1,3.974950052E1
2.507393750E0,5.456665039E0,-2.336261749E1,-3.187487793E1,3.989479831E1
2.517367750E0,5.542053223E0,-2.335193634E1,-3.201425171E1,4.001174324E1
2.527341750E0,5.656051636E0,-2.330730438E1,-3.179858398E1,3.982927693E1
2.537316750E0,5.804779053E0,-2.330857849E1,-3.171234131E1,3.978263292E1
2.547290750E0,5.886154175E0,-2.327011108E1,-3.179953003E1,3.984162385E1
2.557264750E0,6.085830688E0,-2.318684387E1,-3.178628540E1,3.981249808E1
2.567239750E0,6.078475952E0,-2.306974030E1,-3.183541870E1,3.978259256E1
2.577213750E0,6.083129883E0,-2.319711304E1,-3.167416382E1,3.972861911E1
2.587187750E0,6.125610352E0,-2.308031464E1,-3.160192871E1,3.960941711E1
2.597161750E0,6.165405273E0,-2.310540771E1,-3.166360474E1,3.967941472E1
2.607137125E0,6.135864258E0,-2.292258453E1,-3.166342163E1,3.956849733E1
2.617111125E0,6.309738159E0,-2.290612793E1,-3.157464600E1,3.951533578E1
2.627085125E0,6.531250000E0,-2.294661713E1,-3.150140381E1,3.951636251E1
2.637060125E0,6.447769165E0,-2.296319580E1,-3.150985718E1,3.951902311E1
2.647034125E0,6.447769165E0,-2.296319580E1,-3.150985718E1,3.951902311E1
2.657008125E0,6.529846191E0,-2.281306458E1,-3.130783081E1,3.928428537E1
2.666982125E0,6.547393799E0,-2.276486206E1,-3.155227661E1,3.945444803E1
2.676957125E0,6.737075806E0,-2.262827301E1,-3.137014771E1,3.926210765E1
2.686931125E0,6.933074951E0,-2.274347687E1,-3.114337158E1,3.918217531E1
2.696905125E0,7.019592285E0,-2.273934174E1,-3.128637695E1,3.930890130E1
2.706880125E0,6.980026245E0,-2.255621338E1,-3.132659912E1,3.922829771E1
2.716854125E0,7.081680298E0,-2.262635040E1,-3.132794189E1,3.928793545E1
2.726828125E0,7.252044678E0,-2.238307190E1,-3.146768188E1,3.929133572E1
2.736803125E0,7.038085938E0,-2.229602814E1,-3.138226318E1,3.913430678E1
